"Time (s)","X (rad/s)","Y (rad/s)","Z (rad/s)"
3.479458392E-3,4.789260030E-1,-2.676357329E-1,1.763835669E0
1.346245850E-2,7.283875346E-1,-3.517015576E-1,1.942771077E0
2.344545838E-2,9.632559419E-1,-5.021161437E-1,2.063325167E0
3.342845850E-2,1.145719647E0,-5.949693918E-1,2.095150948E0
4.341045837E-2,1.271728516E0,-5.295277834E-1,2.029367447E0
5.339345848E-2,1.374340892E0,-2.270087898E-1,1.855196714E0
6.337645836E-2,1.457184196E0,2.602623403E-1,1.603377581E0
7.335945847E-2,1.492429018E0,8.763992786E-1,1.394778371E0
8.334245835E-2,1.451797485E0,1.541508794E0,1.211901426E0
9.332445846E-2,1.347653389E0,2.120086670E0,9.670420885E-1
1.033074583E-1,1.164289713E0,2.473464966E0,6.785215735E-1
1.132904585E-1,9.881126285E-1,2.378109932E0,5.078282952E-1
1.232734583E-1,8.259929419E-1,1.891011238E0,3.027031124E-1
1.332554584E-1,6.965863705E-1,1.067261100E0,1.877058446E-1
1.432384583E-1,5.998643637E-1,1.886381805E-1,2.324610651E-1
1.532214584E-1,5.501154661E-1,-5.634413958E-1,4.792060852E-1
1.632044583E-1,5.200347900E-1,-1.057559013E0,6.933239698E-1
1.731864584E-1,5.405699015E-1,-1.285747290E0,7.883411050E-1
1.831694585E-1,5.293151140E-1,-1.260122895E0,8.542602062E-1
1.931524584E-1,5.037018061E-1,-9.913898706E-1,9.065567851E-1
2.031354585E-1,5.058728456E-1,-5.459516644E-1,9.355088472E-1
2.131184584E-1,5.656110644E-1,-3.396940231E-2,9.328718185E-1
2.231004585E-1,6.768238544E-1,4.226545990E-1,9.195847511E-1
2.330834584E-1,8.140330911E-1,7.212867737E-1,9.302166700E-1
2.430664585E-1,9.373430610E-1,8.111999035E-1,9.286326170E-1
2.530494584E-1,1.026477575E0,7.064859867E-1,8.371353149E-1
2.630314585E-1,1.050340295E0,4.958584309E-1,7.288863659E-1
2.730144584E-1,9.934024811E-1,2.423449904E-1,7.157128453E-1
2.829974585E-1,8.648631573E-1,-2.113378420E-2,7.783538103E-1
2.929804584E-1,6.862466335E-1,-2.295033038E-1,8.673426509E-1
3.029624585E-1,5.041743517E-1,-3.615289629E-1,9.544245601E-1
3.129454583E-1,3.621980846E-1,-4.011981785E-1,9.719157815E-1
3.229284585E-1,2.687403262E-1,-3.579958379E-1,8.932222724E-1
3.329114583E-1,1.857975423E-1,-2.967816591E-1,7.450224161E-1
3.428944584E-1,1.027673706E-1,-2.621270120E-1,5.665086508E-1
3.528764583E-1,2.966298349E-2,-2.623345256E-1,3.894506991E-1
3.628594584E-1,-1.563046128E-2,-2.758191824E-1,2.353269160E-1
3.728424583E-1,-8.768862113E-3,-2.795400918E-1,8.735764772E-2
3.828254584E-1,-1.326800603E-2,-4.007549286E-1,-9.659780562E-2
3.928074585E-1,-2.150810324E-2,-5.966713428E-1,-2.875312865E-1
4.027904584E-1,2.047263645E-2,-6.770391464E-1,-4.470013976E-1
4.127734585E-1,7.020078599E-2,-5.898110867E-1,-5.885822177E-1
4.227564584E-1,9.236654639E-2,-4.544737935E-1,-7.393035889E-1
4.327384585E-1,6.443390250E-2,-4.149557650E-1,-9.106532335E-1
4.427214584E-1,-5.013885908E-3,-4.201137722E-1,-1.080255389E0
4.527044585E-1,-1.345949322E-1,-4.507366121E-1,-1.220159531E0
4.626874584E-1,-3.989309669E-1,-5.900897384E-1,-1.299117804E0
4.726694585E-1,-8.305535913E-1,-7.349063754E-1,-1.304829836E0
4.826524584E-1,-1.356392980E0,-7.795819640E-1,-1.303666353E0
4.926354585E-1,-1.871821523E0,-7.929692864E-1,-1.366122007E0
5.026184584E-1,-2.293907404E0,-7.670232058E-1,-1.477627754E0
5.126014585E-1,-2.611600637E0,-6.335389018E-1,-1.618522286E0
5.225834583E-1,-2.765468121E0,-3.427089155E-1,-1.790731668E0
5.325664585E-1,-2.777198792E0,1.187768765E-2,-1.955247402E0
5.425494583E-1,-2.687809706E0,4.162187874E-1,-1.975337982E0
5.525324584E-1,-2.533685446E0,9.494362473E-1,-1.901032448E0
5.625144583E-1,-2.321883917E0,1.574014664E0,-1.810772419E0
5.724974584E-1,-2.069111347E0,2.247951746E0,-1.703943610E0
5.824804583E-1,-1.788281918E0,2.849261999E0,-1.585113883E0
5.924634584E-1,-1.518614769E0,3.257219076E0,-1.471156001E0
6.024464583E-1,-1.324567199E0,3.365611792E0,-1.357230186E0
6.124284584E-1,-1.187435150E0,3.127575636E0,-1.280535340E0
6.224114585E-1,-1.087013721E0,2.752487183E0,-1.237391591E0
6.323944584E-1,-9.591758251E-1,2.372841597E0,-1.197978377E0
6.423774585E-1,-6.982139945E-1,2.021932840E0,-1.130437970E0
6.523600833E-1,-4.292894602E-1,1.898300052E0,-1.198604465E0
6.623430834E-1,-2.140247971E-1,1.872455120E0,-1.422875404E0
6.723260835E-1,-8.039274067E-2,1.889854074E0,-1.715665579E0
6.823090834E-1,-3.711929917E-2,1.876650572E0,-1.979856133E0
6.922910835E-1,-8.667487651E-3,1.672250509E0,-2.169206142E0
7.022740834E-1,5.292636901E-2,1.248166800E0,-2.210392952E0
7.122570835E-1,1.266034544E-1,6.375447512E-1,-2.100664139E0
7.222400834E-1,2.159682214E-1,-5.236071348E-2,-1.892033577E0
7.322230835E-1,3.117072582E-1,-6.825342774E-1,-1.642817378E0
7.422050834E-1,3.990559876E-1,-1.188930035E0,-1.372464895E0
7.521880835E-1,4.753219783E-1,-1.549212575E0,-1.089914799E0
7.621710834E-1,5.257681608E-1,-1.762010813E0,-8.002067208E-1
7.721540835E-1,5.449530482E-1,-1.825682640E0,-5.122305751E-1
7.821360833E-1,5.453264117E-1,-1.768719316E0,-2.291035205E-1
7.921190835E-1,5.496152639E-1,-1.645762086E0,2.831420675E-2
8.021020833E-1,5.633597970E-1,-1.541407704E0,2.336782813E-1
8.120850835E-1,5.869705677E-1,-1.486908078E0,4.056574702E-1
8.220670833E-1,6.246236563E-1,-1.398528695E0,6.000834107E-1
8.320500834E-1,6.683642864E-1,-1.230170727E0,8.503995538E-1
8.420330833E-1,6.879802942E-1,-1.064372182E0,1.099004507E0
8.520160834E-1,5.936712623E-1,-1.217623234E0,1.233487725E0
8.619990833E-1,3.829489052E-1,-1.511818647E0,1.275239110E0
8.719810834E-1,1.066447273E-1,-1.622655272E0,1.233131170E0
8.819640835E-1,-1.594098657E-1,-1.395680189E0,1.007676244E0
8.919470834E-1,-2.923709154E-1,-6.841701865E-1,5.791096687E-1
9.019300835E-1,-3.072652966E-2,6.564272642E-1,-1.002877727E-1
9.119120834E-1,5.504373908E-1,1.801066875E0,-9.611814022E-1
9.218950835E-1,9.079100490E-1,2.364609718E0,-1.692027330E0
9.318780834E-1,9.220818281E-1,2.534619808E0,-2.177113771E0
9.418610835E-1,6.761716604E-1,2.363524914E0,-2.433269978E0
9.518430834E-1,3.272414505E-1,1.851338625E0,-2.336812735E0
9.618260835E-1,5.785631016E-2,1.202978730E0,-1.991380930E0
9.718090834E-1,-1.486230940E-1,4.515659809E-1,-1.455735087E0
9.817920835E-1,-3.899624944E-1,-5.083706975E-1,-7.449802160E-1
9.917750834E-1,-4.005337059E-1,-1.360377669E0,6.395510584E-2
1.001757083E0,-1.050432175E-1,-1.843937993E0,5.739457011E-1
1.011740083E0,1.518275142E-1,-2.096860170E0,5.806086659E-1
1.021723083E0,2.110271901E-1,-2.384385347E0,4.808194935E-1
1.031706083E0,1.160431802E-1,-2.336408854E0,5.737162232E-1
1.041688083E0,-1.811600029E-1,-1.790359259E0,8.446348310E-1
1.051671083E0,-4.305989444E-1,-1.232409358E0,1.189233184E0
1.061654083E0,-4.297352731E-1,-8.859528303E-1,1.501004934E0
1.071637083E0,-3.097591996E-1,-7.284916043E-1,1.729624867E0
1.081620083E0,-1.676449329E-1,-6.499816179E-1,1.849887371E0
1.091602084E0,-9.816919453E-3,-5.813229680E-1,1.836607218E0
1.101585083E0,1.569374502E-1,-5.148070455E-1,1.708231449E0
1.111568084E0,3.169956803E-1,-3.991313577E-1,1.564776659E0
1.121551083E0,4.336248338E-1,-2.227355540E-1,1.475642204E0
1.131533084E0,4.656166732E-1,-5.476402491E-2,1.463019729E0
1.141516083E0,4.223285913E-1,6.161557883E-2,1.509599447E0
1.151499083E0,3.504025936E-1,1.148221716E-1,1.576277375E0
1.161482083E0,3.323567510E-1,1.349942833E-1,1.659349442E0
1.171465083E0,4.116848409E-1,1.376419961E-1,1.780264378E0
1.181447083E0,5.775712729E-1,1.227024645E-1,1.913667202E0
1.191430083E0,7.953372002E-1,8.523422480E-2,2.021972895E0
1.201413083E0,9.976493120E-1,1.092537120E-2,2.083321571E0
1.211396083E0,1.126532555E0,-6.411655247E-2,2.067600012E0
1.221378083E0,1.160481811E0,-1.009070575E-1,1.960242867E0
1.231361083E0,1.126199126E0,-5.526234210E-2,1.770634532E0
1.241344083E0,1.059871554E0,1.729945242E-1,1.526688218E0
1.251327083E0,9.891198277E-1,5.914433002E-1,1.267892957E0
1.261310083E0,8.983486295E-1,1.110373735E0,1.004320145E0
1.271292083E0,7.841954827E-1,1.540559530E0,7.517160177E-1
1.281275083E0,6.649913192E-1,1.729568601E0,5.382192135E-1
1.291258083E0,5.595937371E-1,1.701757550E0,3.746931255E-1
1.301241083E0,4.720380604E-1,1.549651384E0,2.557286620E-1
1.311223083E0,3.960062563E-1,1.304369450E0,2.298734784E-1
1.321206084E0,3.219488263E-1,9.515173435E-1,2.763173878E-1
1.331189083E0,2.537373602E-1,5.283690691E-1,3.696737885E-1
1.341172084E0,2.037154883E-1,1.194595993E-1,4.926969409E-1
1.351155083E0,1.849163622E-1,-2.242485136E-1,6.340121031E-1
1.361137083E0,2.127003223E-1,-4.566172957E-1,7.743516564E-1
1.371120083E0,2.800621390E-1,-5.866071582E-1,8.987285495E-1
1.381103083E0,3.918888271E-1,-6.364258528E-1,9.930574894E-1
1.391086083E0,5.505169034E-1,-6.649181843E-1,1.038483381E0
1.401069083E0,7.603753209E-1,-6.488830447E-1,1.067851663E0
1.411051083E0,1.008643508E0,-5.431271195E-1,1.110916376E0
1.421034083E0,1.253751755E0,-3.444893658E-1,1.141094804E0
1.431017083E0,1.441130519E0,-7.525740564E-2,1.127975345E0
1.441000083E0,1.507575154E0,1.479762048E-1,1.020453095E0
1.450982083E0,1.412185550E0,3.314197063E-1,8.547224998E-1
1.460965083E0,1.122307420E0,4.748778045E-1,7.075448036E-1
1.470948083E0,6.708579659E-1,4.513680935E-1,6.505790353E-1
1.480931083E0,1.929406822E-1,2.731360495E-1,6.894140840E-1
1.490914083E0,-1.728727371E-1,2.191226371E-2,7.782720327E-1
1.500896083E0,-3.580343425E-1,-2.133817375E-1,8.487949371E-1
1.510879083E0,-3.954227865E-1,-4.051566124E-1,8.643062115E-1
1.520862083E0,-3.430935144E-1,-5.412558317E-1,8.282475471E-1
1.530845083E0,-2.450215220E-1,-6.168028116E-1,7.466179132E-1
1.540827083E0,-1.225560606E-1,-6.351000667E-1,6.479067802E-1
1.550810084E0,1.621958241E-2,-6.923322082E-1,5.323153734E-1
1.560793083E0,1.887096018E-1,-8.205170631E-1,3.872106969E-1
1.570776084E0,3.511409461E-1,-9.948469400E-1,1.851940602E-1
1.580759083E0,4.596224129E-1,-1.116263986E0,-6.120027602E-2
1.590741083E0,5.133875012E-1,-1.008712053E0,-2.764956951E-1
1.600724083E0,5.093552470E-1,-5.867118239E-1,-4.187124670E-1
1.610707083E0,4.679980576E-1,-1.194412559E-1,-5.650032163E-1
1.620690083E0,3.759706616E-1,1.052134261E-1,-7.638193965E-1
1.630673083E0,2.663784921E-1,1.729378700E-1,-9.687998891E-1
1.640655083E0,1.327248365E-1,2.321734875E-1,-1.124039769E0
1.650637958E0,-7.273449749E-2,1.745936275E-1,-1.210596204E0
1.660620958E0,-4.128153622E-1,-3.514895588E-2,-1.238963127E0
1.670603958E0,-8.989714980E-1,-3.436423242E-1,-1.204643607E0
1.680585958E0,-1.418721318E0,-6.658749580E-1,-1.139224291E0
1.690568958E0,-1.883836627E0,-9.798929691E-1,-1.130240917E0
1.700551959E0,-2.231408119E0,-1.256049991E0,-1.203311443E0
1.710534958E0,-2.427045822E0,-1.350661159E0,-1.339556217E0
1.720517959E0,-2.502662420E0,-1.170857549E0,-1.477277637E0
1.730499958E0,-2.523271084E0,-7.555105090E-1,-1.571185470E0
1.740482958E0,-2.492462635E0,-2.339242995E-1,-1.620991349E0
1.750465958E0,-2.417070389E0,3.057332039E-1,-1.670932889E0
1.760448958E0,-2.285497665E0,9.095924497E-1,-1.697886944E0
1.770431958E0,-2.082205296E0,1.568388581E0,-1.680589199E0
1.780413958E0,-1.826268315E0,2.138449669E0,-1.648056746E0
1.790396958E0,-1.550802588E0,2.506779909E0,-1.608690739E0
1.800379958E0,-1.288351774E0,2.652588606E0,-1.523149967E0
1.810362958E0,-1.068597794E0,2.526427984E0,-1.402861238E0
1.820345958E0,-9.120459557E-1,2.229453087E0,-1.260020375E0
1.830327958E0,-7.812708020E-1,1.833399177E0,-1.104542375E0
1.840310958E0,-5.750774145E-1,1.390092850E0,-9.428396821E-1
1.850293958E0,-3.117420077E-1,1.136711597E0,-8.713882565E-1
1.860276958E0,-9.315612167E-2,1.062703729E0,-9.918981791E-1
1.870258958E0,6.452796608E-2,1.165238500E0,-1.267987370E0
1.880241958E0,1.193336919E-1,1.310586452E0,-1.596156478E0
1.890224958E0,1.090367809E-1,1.351547480E0,-1.901328683E0
1.900207958E0,1.030001938E-1,1.129430771E0,-2.070647955E0
1.910190958E0,1.322046816E-1,6.931587458E-1,-2.049987555E0
1.920172958E0,2.003704160E-1,6.859392673E-2,-1.860320210E0
1.930155959E0,2.829493582E-1,-6.490327716E-1,-1.601776123E0
1.940138958E0,3.679081798E-1,-1.313974857E0,-1.329265237E0
1.950121959E0,4.394211173E-1,-1.777259350E0,-1.028409719E0
1.960103958E0,4.781490564E-1,-1.998543739E0,-6.814879179E-1
1.970086958E0,5.109549761E-1,-2.167932987E0,-3.534258902E-1
1.980069958E0,5.442066789E-1,-2.309790373E0,-1.195470765E-1
1.990052958E0,5.831299424E-1,-2.344259977E0,4.702095315E-2
2.000035958E0,6.220477819E-1,-2.195876837E0,1.808304191E-1
2.010017958E0,6.982959509E-1,-1.996509314E0,2.990684211E-1
2.020000958E0,7.964723110E-1,-1.814361095E0,4.113427699E-1
2.029983958E0,9.325747490E-1,-1.574228764E0,5.542180538E-1
2.039966958E0,9.557647109E-1,-1.525068283E0,7.082563639E-1
2.049948958E0,8.568960428E-1,-1.674035788E0,8.704256415E-1
2.059931958E0,7.083755136E-1,-1.794708729E0,9.902412891E-1
2.069914958E0,5.658357143E-1,-1.739035130E0,1.004424930E0
2.079897958E0,4.318011701E-1,-1.463162780E0,8.684889674E-1
2.089880958E0,2.831342220E-1,-9.644479752E-1,5.725417733E-1
2.099862958E0,1.253967881E-1,-1.302774698E-1,1.820414066E-1
2.109845958E0,1.251646131E-1,1.030999899E0,-3.446894288E-1
2.119828958E0,3.592380881E-1,2.006377459E0,-1.027103901E0
2.129811958E0,5.740646720E-1,2.470520496E0,-1.701597929E0
2.139793959E0,5.567490458E-1,2.629941940E0,-2.213098526E0
2.149776958E0,3.427796066E-1,2.603485346E0,-2.429228783E0
2.159759959E0,9.200866520E-2,2.418994904E0,-2.224096060E0
2.169742958E0,-7.403112948E-2,2.175069571E0,-1.803541780E0
2.179725959E0,-2.113628834E-1,1.753889084E0,-1.290239215E0
2.189707958E0,-3.794589043E-1,1.001911640E0,-7.244716883E-1
2.199690958E0,-4.343900681E-1,1.135628968E-1,-2.087007761E-1
2.209673958E0,-3.422511220E-1,-6.863383055E-1,7.997520268E-2
2.219656958E0,-2.720491290E-1,-1.506753922E0,1.312969774E-1
2.229638958E0,-3.031767905E-1,-2.357820034E0,2.567261755E-1
2.239621958E0,-3.707332015E-1,-2.606861353E0,6.006369591E-1
2.249604958E0,-4.462686181E-1,-2.255999804E0,1.030673862E0
2.259587958E0,-5.239413381E-1,-1.716434479E0,1.436449051E0
2.269570958E0,-4.637741745E-1,-1.339271903E0,1.769179583E0
2.279552958E0,-3.069704473E-1,-1.123322606E0,1.964986324E0
2.289535958E0,-1.469161063E-1,-1.011719227E0,2.031850100E0
2.299518958E0,1.841586642E-2,-8.855128884E-1,1.978707552E0
2.309501958E0,1.917381436E-1,-6.947346330E-1,1.852937579E0
2.319483958E0,3.444549739E-1,-3.984624743E-1,1.692451954E0
2.329466958E0,4.528971314E-1,-1.769077033E-2,1.546970487E0
2.339449958E0,5.118986964E-1,3.997142017E-1,1.457601428E0
2.349432959E0,5.302823782E-1,7.584934831E-1,1.430757880E0
2.359415958E0,5.075166225E-1,1.017399907E0,1.455004573E0
2.369397959E0,4.709863961E-1,1.120506525E0,1.519841671E0
2.379380958E0,4.652454257E-1,1.078849435E0,1.657065868E0
2.389363959E0,5.042688251E-1,9.280044436E-1,1.853579760E0
2.399346958E0,5.825377703E-1,6.653386950E-1,2.067059517E0
2.409328958E0,6.655729413E-1,3.264364004E-1,2.227971554E0
2.419311958E0,7.433324456E-1,-3.944571316E-2,2.288950443E0
2.429294958E0,8.274883032E-1,-2.951626480E-1,2.246134520E0
2.439277958E0,9.159718156E-1,-3.338671625E-1,2.161112309E0
2.449260958E0,1.022468686E0,-1.724075973E-1,1.927144766E0
2.459242958E0,1.132152796E0,2.222211957E-1,1.580225348E0
2.469225958E0,1.204575419E0,8.333261013E-1,1.204756379E0
2.479208958E0,1.215744376E0,1.475820303E0,8.743489385E-1
2.489191958E0,1.167827487E0,1.911608100E0,6.443866491E-1
2.499173958E0,1.074864745E0,2.006677866E0,5.058814883E-1
2.509156958E0,9.586350918E-1,1.779595852E0,3.849763274E-1
2.519139958E0,8.299196959E-1,1.286312580E0,2.327753305E-1
2.529122958E0,6.896101832E-1,6.343443394E-1,9.907126427E-2
2.539105958E0,5.668714643E-1,5.071128160E-2,5.580102280E-2
2.549087958E0,4.668748677E-1,-3.152577877E-1,1.074008122E-1
2.559070959E0,3.865256906E-1,-4.653277099E-1,1.999584436E-1
2.569053958E0,3.353622258E-1,-4.192244112E-1,3.042932153E-1
2.579036959E0,3.245449960E-1,-2.085800618E-1,4.056696296E-1
2.589018958E0,3.674741089E-1,1.259664446E-1,4.944056869E-1
2.599001959E0,4.832302928E-1,4.286032617E-1,5.814430714E-1
2.608984958E0,6.515005827E-1,5.483854413E-1,6.599255204E-1
2.618967958E0,8.266774416E-1,4.623425007E-1,7.339832187E-1
2.628949958E0,9.756484628E-1,2.575440407E-1,8.151714206E-1
2.638932958E0,1.095923185E0,4.926380515E-2,8.801932931E-1
2.648915042E0,1.159031868E0,-1.260149926E-1,9.157164097E-1
2.658898042E0,1.115969896E0,-3.027991056E-1,9.165675640E-1
2.668881042E0,9.414185882E-1,-4.804507494E-1,9.140897393E-1
2.678863042E0,6.899027228E-1,-5.781672001E-1,9.512991309E-1
2.688846042E0,4.261306822E-1,-5.849340558E-1,1.044972301E0
2.698829042E0,1.780700237E-1,-5.370405316E-1,1.150330186E0
2.708812042E0,-1.739233918E-2,-4.812011719E-1,1.179873466E0
2.718794042E0,-1.197442785E-1,-4.096446931E-1,1.104197621E0
2.728777042E0,-1.297840029E-1,-3.201553524E-1,9.556948543E-1
2.738760042E0,-6.909587979E-2,-2.371696681E-1,7.689228058E-1
2.748743042E0,1.950429939E-2,-2.104175091E-1,5.776322484E-1
2.758726042E0,1.057955176E-1,-2.272385806E-1,4.116299748E-1
2.768708042E0,1.785664707E-1,-2.489519119E-1,2.851666510E-1
2.778691042E0,2.396958768E-1,-2.528265417E-1,1.822954118E-1
2.788674042E0,2.738395035E-1,-2.114504725E-1,9.869562835E-2
2.798657042E0,2.993560433E-1,-8.145283908E-3,3.148036450E-2
2.808639042E0,3.425560594E-1,2.999474406E-1,-4.460951686E-2
2.818622042E0,4.140496850E-1,4.907813072E-1,-1.130932420E-1
2.828605042E0,4.526270628E-1,4.174017906E-1,-1.769793928E-1
2.838588042E0,4.132943153E-1,2.094390094E-1,-2.414478660E-1
2.848570042E0,3.141180873E-1,1.458470337E-2,-3.247969151E-1
2.858553042E0,1.694397330E-1,-1.663046479E-1,-4.395227134E-1
2.868536042E0,-4.819639027E-2,-3.776088953E-1,-6.220666766E-1
2.878519042E0,-3.885643482E-1,-6.555688381E-1,-8.713041544E-1
2.888502042E0,-8.494583368E-1,-9.319249392E-1,-1.161496043E0
2.898484042E0,-1.363925099E0,-1.112256646E0,-1.440072894E0
2.908467042E0,-1.857369900E0,-1.176726341E0,-1.685389280E0
2.918450042E0,-2.272714138E0,-1.144665599E0,-1.932734728E0
2.928433042E0,-2.593734026E0,-9.841666222E-1,-2.118110895E0
2.938415042E0,-2.840591669E0,-6.730042696E-1,-2.233673334E0
2.948398042E0,-2.970988035E0,-2.689220607E-1,-2.318878412E0
2.958381042E0,-2.965512037E0,1.997276992E-1,-2.309801579E0
2.968364042E0,-2.836912870E0,7.310736179E-1,-2.202121496E0
2.978346042E0,-2.615553617E0,1.292392492E0,-1.984565020E0
2.988329042E0,-2.288274765E0,1.838184595E0,-1.650318503E0
2.998312042E0,-1.888590097E0,2.305333138E0,-1.208411098E0
3.008295042E0,-1.459849834E0,2.650188684E0,-6.936105490E-1
3.018277042E0,-1.069172144E0,2.739140272E0,-2.218390256E-1
3.028260042E0,-7.305217981E-1,2.467207670E0,6.946458668E-2
3.038243042E0,-5.024918318E-1,1.884036899E0,1.073850691E-1
3.048226042E0,-4.275177419E-1,1.337994695E0,-7.966552675E-2
3.058209042E0,-3.859077096E-1,9.915701151E-1,-4.707595110E-1
3.068191042E0,-2.589200437E-1,1.044333696E0,-1.033219457E0
3.078174042E0,-1.418932825E-1,1.288614035E0,-1.515871644E0
3.088157042E0,-4.935460538E-2,1.603077292E0,-1.807032943E0
3.098140042E0,3.209269140E-3,1.789050937E0,-1.941069007E0
3.108122042E0,5.020312592E-2,1.726039290E0,-2.005754232E0
3.118105042E0,8.990739286E-2,1.399613261E0,-1.991588950E0
3.128088042E0,1.004670337E-1,8.201571703E-1,-1.869195461E0
3.138071042E0,7.203299552E-2,4.257220402E-2,-1.633872151E0
3.148053042E0,2.388827875E-2,-7.559612989E-1,-1.346436143E0
3.158036042E0,7.535139564E-3,-1.365794301E0,-1.011216044E0
3.168019042E0,1.117288414E-2,-1.743239641E0,-6.401575208E-1
3.178002042E0,1.635459624E-2,-1.962814808E0,-3.378030062E-1
3.187984042E0,1.193862222E-2,-2.083032846E0,-1.753652692E-1
3.197967042E0,5.050622858E-3,-2.083746910E0,-9.913975000E-2
3.207950042E0,2.773907781E-2,-1.983926296E0,-3.549374267E-2
3.217933042E0,8.670519292E-2,-1.853936076E0,4.210118204E-2
3.227916042E0,1.856290102E-1,-1.737543583E0,1.685788780E-1
3.237898042E0,3.079029918E-1,-1.666548014E0,3.531881273E-1
3.247881042E0,4.398631752E-1,-1.594091535E0,5.754116178E-1
3.257864042E0,5.275091529E-1,-1.575725913E0,8.210762143E-1
3.267847042E0,5.417102575E-1,-1.663677454E0,1.068321824E0
3.277829042E0,5.189951062E-1,-1.780868769E0,1.242264032E0
3.287812042E0,4.507742822E-1,-1.744557858E0,1.306437492E0
3.297795042E0,1.980690807E-1,-1.414387703E0,1.325973988E0
3.307778042E0,-1.350745708E-1,-7.246913910E-1,1.217143059E0
3.317760042E0,-3.301492631E-1,7.001027465E-1,9.285809994E-1
3.327743042E0,1.864890456E-1,2.466801882E0,1.204377785E-1
3.337726042E0,1.002041340E0,3.128781319E0,-1.008291960E0
