"Time (s)","X (m/s^2)","Y (m/s^2)","Z (m/s^2)"
-5.169999786E-4,-9.647438049E-1,-9.630523224E0,8.490344238E-1
9.465000127E-3,-1.199306030E0,-9.710906067E0,1.143771515E0
1.944700000E-2,-1.461560669E0,-9.877359924E0,1.239272919E0
2.942900010E-2,-1.851200409E0,-1.009545639E1,1.055155792E0
3.941099998E-2,-2.251468048E0,-1.038196060E1,6.256988525E-1
4.939300008E-2,-2.604284363E0,-1.084734283E1,1.493893433E-1
5.937499995E-2,-2.658172302E0,-1.141361526E1,-2.282752991E-1
6.935700006E-2,-2.679128723E0,-1.198078583E1,-5.269042969E-1
7.933899993E-2,-2.510579224E0,-1.215876572E1,-7.798782349E-1
8.932100004E-2,-1.659149780E0,-1.212673233E1,-1.175655212E0
9.930299991E-2,-8.578660583E-1,-1.206506058E1,-1.335223389E0
1.092850000E-1,-9.265731812E-2,-1.198737213E1,-1.146016846E0
1.192670001E-1,6.818321228E-1,-1.191716812E1,-6.909631348E-1
1.292490000E-1,1.220412140E0,-1.188693100E1,-1.743873596E-1
1.392310001E-1,1.478625183E0,-1.191821594E1,2.565664673E-1
1.492130000E-1,1.481768646E0,-1.202374649E1,2.939886475E-1
1.591950001E-1,1.250200195E0,-1.229752716E1,-1.779798889E-1
1.691769999E-1,8.771759033E-1,-1.280093033E1,-8.605604553E-1
1.791590001E-1,4.224215698E-1,-1.349803070E1,-1.233435059E0
1.891409999E-1,1.152603149E-2,-1.407807449E1,-1.291963348E0
1.991230000E-1,-2.070195007E-1,-1.421878189E1,-1.481469269E0
2.091050001E-1,-2.662962341E-1,-1.381088013E1,-1.654659119E0
2.190870000E-1,-5.773493958E-1,-1.293100983E1,-1.430724792E0
2.290690001E-1,-1.220861206E0,-1.179142960E1,-7.843688965E-1
2.390510000E-1,-1.735790405E0,-1.067789520E1,5.134323120E-2
2.490330001E-1,-2.203567657E0,-9.457033997E0,8.053253174E-1
2.590150000E-1,-2.799179077E0,-8.032745819E0,8.669970703E-1
2.689970001E-1,-3.579356689E0,-7.093299408E0,-6.864724731E-1
2.789789999E-1,-4.858895874E0,-7.976013794E0,-3.452420654E0
2.889610000E-1,-5.702990570E0,-9.681417389E0,-3.406466217E0
2.989429999E-1,-6.036347351E0,-1.050066376E1,-5.463638306E-1
3.089250000E-1,-6.747967529E0,-1.117067047E1,2.178719330E0
3.189070001E-1,-6.879543915E0,-1.242596008E1,3.587140503E0
3.288890000E-1,-6.237828369E0,-1.359053833E1,3.040626984E0
3.388710001E-1,-5.241649933E0,-1.315584229E1,2.119592285E0
3.488530000E-1,-3.783083038E0,-1.118369339E1,1.822759552E0
3.588350001E-1,-2.833906860E0,-1.000145187E1,7.791297913E-1
3.688170000E-1,-2.172282715E0,-9.758058014E0,-5.119354248E-1
3.787990001E-1,-1.740730133E0,-9.895921326E0,-1.589544525E0
3.887809999E-1,-1.849404144E0,-1.012060410E1,-2.246378632E0
3.987630000E-1,-2.365979919E0,-9.940378876E0,-2.160008240E0
4.087449999E-1,-2.176923065E0,-9.630373535E0,-1.402283936E0
4.187270000E-1,-1.609303436E0,-9.849517822E0,-1.046174469E0
4.287090001E-1,-1.084943848E0,-9.682914276E0,-3.447331238E-1
4.386910000E-1,4.477189636E-1,-9.514664154E0,-4.595443726E-2
4.486730001E-1,9.210346985E-1,-9.252708893E0,-7.005432129E-1
4.586550000E-1,-3.893403625E-1,-8.591533813E0,-1.438658295E0
4.686360001E-1,-1.129401398E0,-8.019273834E0,-1.593586121E0
4.786189999E-1,-1.338965607E0,-7.731123047E0,-8.491841125E-1
4.886010000E-1,-1.286724243E0,-7.337142334E0,-6.442602539E-1
4.985819999E-1,-1.309177551E0,-7.130871277E0,-7.029382324E-1
5.085640000E-1,-1.660796356E0,-7.058421936E0,-5.367837524E-1
5.185460001E-1,-1.821562042E0,-6.706503754E0,-1.456471252E-1
5.285280000E-1,-2.072739716E0,-6.347550201E0,-1.975891113E-2
5.385100001E-1,-2.380499725E0,-6.287974091E0,1.496887207E-3
5.484920000E-1,-2.614463196E0,-6.369105377E0,-6.601272583E-2
5.584740001E-1,-2.420316925E0,-6.038293304E0,-1.442999268E-1
5.684559999E-1,-2.674937439E0,-5.791606293E0,5.658233643E-2
5.784380001E-1,-2.439626770E0,-5.416935425E0,-1.850152588E-1
5.884199999E-1,-2.175575867E0,-5.097649384E0,-6.183641052E-1
5.984020000E-1,-1.801952820E0,-4.924908600E0,-9.865983582E-1
6.083839999E-1,-1.567989349E0,-4.594395905E0,-1.506018219E0
6.183660000E-1,-9.538165283E-1,-4.656666412E0,-1.936822357E0
6.283480001E-1,-8.303233337E-1,-4.909640350E0,-2.718047791E0
6.383300000E-1,-8.186476135E-1,-5.124743042E0,-3.363056488E0
6.483120001E-1,-8.792715454E-1,-5.493576050E0,-3.545976105E0
6.582940000E-1,-9.580078125E-1,-6.001769257E0,-3.574566650E0
6.682760001E-1,-1.482367401E0,-6.867119751E0,-3.833378448E0
6.782579999E-1,-1.570683746E0,-8.030949554E0,-5.938301239E0
6.882400000E-1,-1.669627991E0,-9.078471222E0,-7.308252411E0
6.982219999E-1,-1.441951447E0,-1.001522324E1,-8.089178467E0
7.082040000E-1,-1.507365417E-1,-1.151764893E1,-9.065448303E0
7.181860001E-1,1.915117493E0,-1.333412155E1,-8.742869110E0
7.281680000E-1,3.290307770E0,-1.505269775E1,-8.657845917E0
7.381500001E-1,3.436104584E0,-1.656709854E1,-8.762029266E0
7.481320000E-1,1.986968079E0,-1.681902466E1,-8.882229309E0
7.581140001E-1,2.329156494E-1,-1.518726791E1,-9.451345825E0
7.680960000E-1,3.248245239E-2,-1.322814194E1,-1.044123734E1
7.780780001E-1,9.741741943E-1,-1.140912460E1,-9.641749878E0
7.880599999E-1,2.098785553E0,-9.243577881E0,-7.593259735E0
7.980420000E-1,2.240840149E0,-6.773115234E0,-6.803951111E0
8.080239999E-1,1.300794983E0,-4.936135254E0,-6.094276886E0
8.180060000E-1,-7.658074951E-1,-4.016148376E0,-5.351371765E0
8.279880001E-1,-2.955304413E0,-5.388943634E0,-3.630400543E0
8.379700000E-1,-4.820425873E0,-8.131989441E0,-1.850302277E0
8.479520001E-1,-6.999893646E0,-1.112381790E1,-8.286767578E-1
8.579340000E-1,-9.902807007E0,-1.494492188E1,2.195783844E0
8.679160001E-1,-1.173754166E1,-1.804826843E1,4.837789764E0
8.778979999E-1,-1.089943451E1,-1.674492874E1,5.837411041E0
8.878800001E-1,-8.452023926E0,-1.174577454E1,5.966891785E0
8.978619999E-1,-5.336253204E0,-7.864196320E0,5.251529388E0
9.078440000E-1,-3.919748840E0,-6.739435272E0,4.400698700E0
9.178259999E-1,-3.252735901E0,-5.669160919E0,4.132606201E0
9.278080000E-1,-3.152145081E0,-5.044360199E0,4.453389130E0
9.377900001E-1,-3.213667145E0,-5.553301849E0,3.727398834E0
9.477720000E-1,-3.360511780E0,-6.701564026E0,2.700085144E0
9.577540001E-1,-3.755390625E0,-7.956404572E0,2.618205414E0
9.677360000E-1,-4.106560364E0,-9.042096863E0,3.073708191E0
9.777180001E-1,-4.040397949E0,-9.851912842E0,3.392545166E0
9.876999999E-1,-3.605103149E0,-1.049512527E1,2.980901184E0
9.976820000E-1,-2.394570465E0,-1.128129044E1,1.916315002E0
1.007664000E0,-4.872367859E-1,-1.251801865E1,9.698332214E-1
1.017646000E0,1.779050446E0,-1.325912750E1,1.968406677E-1
1.027628000E0,3.987408142E0,-1.259450958E1,-4.331991577E-1
1.037610000E0,5.514981537E0,-1.057984909E1,-1.655706940E0
1.047592000E0,5.087021484E0,-8.872649231E0,-2.805915070E0
1.057574000E0,3.566184082E0,-7.829917603E0,-2.253563690E0
1.067556000E0,6.500981140E-1,-7.606132965E0,-1.059047699E0
1.077538000E0,-1.473835144E0,-7.351662140E0,-3.727249146E-1
1.087520000E0,-2.810705109E0,-7.430398407E0,-3.171903992E-1
1.097502000E0,-3.422033844E0,-8.016280060E0,-5.704637146E-1
1.107484000E0,-3.526965637E0,-8.364905090E0,-6.589297485E-1
1.117466000E0,-3.342698822E0,-8.792416077E0,-6.599775696E-1
1.127448000E0,-2.752925262E0,-9.107211456E0,-6.047424316E-1
1.137430000E0,-2.384990387E0,-9.093290405E0,-2.477348328E-1
1.147412000E0,-2.336042175E0,-8.912915497E0,3.441343689E-1
1.157394000E0,-2.131268005E0,-8.662336578E0,6.159690857E-1
1.167376000E0,-1.729353790E0,-8.389154663E0,5.969586182E-1
1.177358000E0,-1.382375336E0,-8.396788788E0,5.083428955E-1
1.187340000E0,-1.184187469E0,-8.531358948E0,2.451901245E-1
1.197322000E0,-1.097817078E0,-8.665330353E0,1.405577087E-1
1.207304000E0,-9.650431824E-1,-8.969797211E0,-4.117936707E-1
1.217286000E0,-6.979985046E-1,-9.142238617E0,-6.932084656E-1
1.227268000E0,-4.201762390E-1,-9.423653412E0,-5.565426636E-1
1.237250000E0,-3.701802063E-1,-9.847571869E0,-5.352868652E-1
1.247232000E0,-4.150868225E-1,-1.012659164E1,-7.578739929E-1
1.257214000E0,-6.321354675E-1,-1.052760773E1,-1.119821320E0
1.267196000E0,-8.801696777E-1,-1.126542343E1,-1.371148682E0
1.277178000E0,-9.075627136E-1,-1.188977509E1,-1.584305420E0
1.287160000E0,-6.015989685E-1,-1.213825836E1,-2.059417419E0
1.297142000E0,-5.358856201E-2,-1.187555466E1,-2.356549530E0
1.307124000E0,4.513114929E-1,-1.160102554E1,-1.986968079E0
1.317106000E0,7.038363647E-1,-1.163710052E1,-8.948391724E-1
1.327088000E0,5.478607178E-1,-1.191851532E1,8.577163696E-2
1.337070000E0,5.207670593E-1,-1.231354385E1,3.356021118E-1
1.347052000E0,9.621990967E-1,-1.274464737E1,3.387455750E-1
1.357033000E0,1.568887482E0,-1.307680664E1,4.540058899E-1
1.367015000E0,2.227368164E0,-1.313698151E1,5.767506409E-1
1.376997000E0,2.837948456E0,-1.286095551E1,4.227209473E-1
1.386979000E0,3.103496246E0,-1.222537720E1,-4.077520752E-1
1.396961000E0,2.705923004E0,-1.194306427E1,-1.901196442E0
1.406943000E0,1.610650635E0,-1.237491623E1,-3.858077087E0
1.416925000E0,8.261320496E-1,-1.311827042E1,-5.680836639E0
1.426907000E0,6.951544189E-1,-1.366253860E1,-5.399272156E0
1.436889000E0,5.927673340E-1,-1.372540787E1,-3.557502136E0
1.446871000E0,8.405021667E-1,-1.354727829E1,-2.552342377E0
1.456853000E0,1.221160583E0,-1.264480499E1,-1.902693329E0
1.466835000E0,6.818321228E-1,-1.118114868E1,-1.116977234E0
1.476817000E0,-1.355880432E0,-9.600136414E0,-3.626957703E-1
1.486799042E0,-3.608545990E0,-8.070018311E0,8.261320496E-1
1.496781042E0,-4.973707123E0,-8.466992798E0,1.474134521E0
1.506763042E0,-5.597010956E0,-1.076246933E1,1.528471527E0
1.516745042E0,-6.032455444E0,-1.300181259E1,2.613714752E0
1.526727042E0,-7.662864990E0,-1.514131348E1,3.347638550E0
1.536709042E0,-9.943672028E0,-1.742346771E1,3.018922119E0
1.546691042E0,-1.184831131E1,-1.853041580E1,1.482517090E0
1.556673042E0,-1.100631226E1,-1.742990433E1,-2.254761200E0
1.566655042E0,-7.940387878E0,-1.537797134E1,-6.476581879E0
1.576637042E0,-6.339167633E0,-1.370534958E1,-5.923332367E0
1.586619042E0,-5.917045441E0,-1.137484589E1,-2.562970276E0
1.596601042E0,-4.973856812E0,-9.593400421E0,-1.311273193E-1
1.606583042E0,-3.912713470E0,-8.901838531E0,9.039701843E-1
1.616565042E0,-2.323917389E0,-7.865244141E0,1.565444641E0
1.626547042E0,1.273851013E-1,-7.318580933E0,-4.221221924E-2
1.636529042E0,1.520837402E0,-7.289990387E0,-4.040098572E-1
1.646511042E0,3.029400330E0,-7.739655304E0,6.170169067E-1
1.656493042E0,3.308569794E0,-8.261021118E0,7.638615417E-1
1.666475042E0,9.325607300E-1,-8.036188660E0,1.104702759E-1
1.676457042E0,-1.246158600E0,-7.265441437E0,1.344204712E-1
1.686439042E0,-2.428549805E0,-6.532715149E0,5.703140259E-1
1.696421042E0,-2.225272522E0,-5.661975861E0,6.614744568E-1
1.706403042E0,-1.557511139E0,-5.303770752E0,3.489244080E-1
1.716385042E0,-1.119671631E0,-5.245392151E0,2.778222656E-1
1.726367042E0,-1.030906219E0,-4.909041595E0,5.944139099E-1
1.736349042E0,-1.072968750E0,-4.330943756E0,1.051712952E0
1.746331042E0,-1.661245422E0,-3.616180115E0,1.825304260E0
1.756313042E0,-2.584375763E0,-2.646197205E0,2.334545288E0
1.766295042E0,-3.155138855E0,-1.442101135E0,2.337988129E0
1.776277042E0,-3.497926025E0,-6.035449219E-1,1.594334564E0
1.786259042E0,-3.622017975E0,-4.569996643E-1,3.606001282E-1
1.796241042E0,-3.712280273E0,-6.258485413E-1,-9.141490173E-1
1.806223042E0,-3.488495636E0,-1.122216339E0,-1.754950562E0
1.816205042E0,-2.742147675E0,-2.449805603E0,-2.681972809E0
1.826187042E0,-2.059866486E0,-4.219425659E0,-3.494183807E0
1.836169042E0,-2.410287781E0,-6.279441833E0,-4.257895660E0
1.846151042E0,-1.759441223E0,-8.147557068E0,-6.048621826E0
1.856132042E0,-1.099763031E0,-1.004531067E1,-9.300609283E0
1.866114042E0,-1.526226196E0,-1.348710342E1,-1.415995422E1
1.876096042E0,-1.098116455E0,-1.855825790E1,-1.622176666E1
1.886078042E0,1.370998993E0,-2.411664917E1,-1.685944061E1
1.896060042E0,3.325334930E0,-2.663426376E1,-1.407238632E1
1.906042042E0,2.781815186E0,-2.132360733E1,-1.164533340E1
1.916024042E0,7.755372620E-1,-1.480376541E1,-1.233315308E1
1.926006042E0,9.415420532E-2,-1.078896423E1,-1.248583557E1
1.935988042E0,1.736389160E-2,-7.969128113E0,-9.492659912E0
1.945970042E0,5.912704468E-2,-5.608387299E0,-6.230792999E0
1.955952042E0,-4.336482239E-1,-2.969524841E0,-4.934937744E0
1.965934042E0,-1.891466675E0,-9.171427917E-1,-5.450166321E0
1.975916042E0,-3.919898529E0,-1.444496155E0,-3.102149048E0
1.985898042E0,-5.455854492E0,-4.661905518E0,3.758683777E-1
1.995880042E0,-8.351133728E0,-9.116941223E0,8.038284302E-1
2.005862042E0,-1.238958572E1,-1.418719757E1,4.029171295E0
2.015844042E0,-1.502874756E1,-1.895687897E1,6.207591248E0
2.025826042E0,-1.436353088E1,-1.883862488E1,7.143295441E0
2.035808042E0,-9.455237732E0,-1.368229752E1,4.540507965E0
2.045790042E0,-2.385140076E0,-1.002570145E1,2.846929779E0
2.055772042E0,3.176394653E-1,-9.560319214E0,6.492897949E0
2.065754042E0,1.089434509E0,-8.911717987E0,8.271798706E0
2.075736042E0,1.601669312E-2,-8.267308044E0,7.599546661E0
2.085718042E0,-2.442021790E0,-7.989036713E0,6.716083832E0
2.095700042E0,-2.856809235E0,-8.023764496E0,5.678142242E0
2.105682042E0,-2.216740265E0,-8.061785431E0,4.645589447E0
2.115664042E0,-2.501298523E0,-8.392896881E0,3.131038971E0
2.125646042E0,-2.318977661E0,-9.626032562E0,1.348096619E0
2.135628042E0,-8.861572266E-1,-1.189217010E1,-9.008267212E-1
2.145610042E0,1.771566010E0,-1.381432297E1,-2.988235931E0
2.155592042E0,3.428021393E0,-1.392673920E1,-3.996838531E0
2.165574042E0,3.497476959E0,-1.252610184E1,-3.760779419E0
2.175556042E0,2.534828796E0,-1.096978821E1,-2.914289703E0
2.185538042E0,1.698817291E0,-9.403445435E0,-1.826801147E0
2.195520042E0,3.546125793E-1,-7.546706543E0,-5.239105225E-3
2.205502042E0,-1.815873871E0,-6.518943787E0,1.055305481E0
2.215484042E0,-3.616180115E0,-6.446195068E0,1.440304871E0
2.225466042E0,-4.515809326E0,-6.268364868E0,1.559606781E0
2.235448042E0,-4.427043915E0,-6.617289276E0,1.111139374E0
2.245430042E0,-4.308939514E0,-7.098688202E0,5.686674500E-1
2.255411042E0,-3.938160553E0,-7.774981842E0,-8.053253174E-2
2.265393042E0,-3.381917267E0,-8.076005859E0,-3.918850708E-1
2.275375042E0,-2.818039856E0,-8.150251465E0,-2.960842896E-1
2.285357042E0,-2.467319183E0,-8.228089600E0,-2.405497742E-1
2.295339042E0,-1.741777954E0,-8.443940735E0,-1.642085266E-1
2.305321042E0,-8.836125183E-1,-8.883277130E0,-1.698966980E-1
2.315303042E0,-3.188369751E-2,-9.408983917E0,-3.791615295E-1
2.325285042E0,7.209008789E-1,-9.614805908E0,-7.496411133E-1
2.335267042E0,1.279389496E0,-9.679770813E0,-1.174607391E0
2.345249042E0,1.562750244E0,-9.639354858E0,-1.762584686E0
2.355231042E0,1.768123169E0,-9.546547852E0,-2.361638947E0
2.365213042E0,1.822460175E0,-9.530680847E0,-2.523153076E0
2.375195042E0,1.542242889E0,-9.589957581E0,-2.152823181E0
2.385177042E0,1.085542603E0,-9.864786072E0,-1.507365417E0
2.395159042E0,6.569837952E-1,-1.039962387E1,-7.849676514E-1
2.405141042E0,2.885998535E-1,-1.099867813E1,-2.903961182E-1
2.415123042E0,-7.424560547E-2,-1.132754425E1,-2.918930054E-1
2.425105042E0,-4.646337891E-1,-1.152019363E1,-4.808001709E-1
2.435087042E0,-1.097667389E0,-1.183693497E1,-4.221221924E-1
2.445069042E0,-1.609153748E0,-1.214798813E1,-2.092648315E-1
2.455051042E0,-1.235231323E0,-1.249451752E1,-1.454974365E-1
2.465033042E0,-3.818559265E-1,-1.286589523E1,-6.945556641E-2
2.475015042E0,3.513194275E-1,-1.317410431E1,2.778222656E-1
2.484997542E0,1.231638794E0,-1.335118607E1,7.273374939E-1
2.494979542E0,2.137554932E0,-1.341959381E1,1.029109955E0
2.504961542E0,2.572550354E0,-1.312800018E1,7.328759766E-1
2.514943542E0,2.447859650E0,-1.274898834E1,-5.890251160E-1
2.524925542E0,1.690434723E0,-1.290406586E1,-2.602338409E0
2.534907542E0,3.436853027E-1,-1.361149475E1,-5.018913116E0
2.544889542E0,-3.734733582E-1,-1.428404617E1,-6.358327789E0
2.554871542E0,-9.334588623E-1,-1.480346603E1,-5.329666901E0
2.564853542E0,-9.852511597E-1,-1.418465286E1,-4.711302795E0
2.574835542E0,4.221221924E-2,-1.291364594E1,-3.449726257E0
2.584817542E0,9.234297180E-1,-1.138502472E1,-1.399888916E0
2.594799542E0,7.346722412E-1,-9.858648834E0,-4.490661621E-1
2.604781542E0,-1.327738953E-1,-8.905880127E0,-1.673519897E-1
2.614763542E0,-1.350791016E0,-8.536747742E0,1.016685791E0
2.624744542E0,-2.907553711E0,-9.059161377E0,7.755372620E-1
2.634726542E0,-3.363355865E0,-1.104702759E1,1.190025330E0
2.644708542E0,-3.548820190E0,-1.331660797E1,2.720442810E0
2.654690542E0,-4.797673187E0,-1.517349655E1,3.256328430E0
2.664672542E0,-6.597979431E0,-1.657054138E1,3.412453766E0
2.674654542E0,-8.310568085E0,-1.756237885E1,3.064277802E0
2.684636542E0,-8.739875336E0,-1.777643372E1,1.393452301E0
2.694618542E0,-7.338639221E0,-1.578063400E1,-1.215921478E0
2.704600542E0,-5.810317383E0,-1.334804260E1,-2.812800751E0
2.714582542E0,-5.240153046E0,-1.185399948E1,-2.821931763E0
2.724564542E0,-5.023104401E0,-1.038345749E1,-2.009720764E0
2.734546542E0,-5.402265930E0,-9.112600250E0,-1.588197327E0
2.744528542E0,-3.620670776E0,-7.868686981E0,-2.405497742E-1
2.754510542E0,-1.205592957E0,-6.981182556E0,1.951491852E0
2.764492542E0,1.624272308E0,-7.460934906E0,7.855664063E-1
2.774474542E0,3.751349030E0,-7.699987793E0,-9.261241150E-1
2.784456542E0,1.698517914E0,-7.519912262E0,-4.340972900E-2
2.794438542E0,-1.811233521E-1,-6.394253082E0,5.526507568E-1
2.804420542E0,-7.167095947E-1,-5.309159546E0,4.586462402E-1
2.814402542E0,-9.583071899E-1,-4.804708557E0,4.616400146E-1
2.824384542E0,-1.105900269E0,-4.526137848E0,5.941145325E-1
2.834366542E0,-9.681866455E-1,-4.481081543E0,9.208850098E-1
2.844348542E0,-9.357041931E-1,-4.480333099E0,1.078656921E0
2.854330542E0,-1.190773773E0,-4.301006012E0,1.132694550E0
2.864312542E0,-1.642833710E0,-4.048630829E0,1.496587830E0
2.874294542E0,-2.139051819E0,-3.608845367E0,1.695823517E0
2.884276542E0,-2.896626434E0,-3.080144806E0,1.799557800E0
2.894258542E0,-3.601510620E0,-2.603086853E0,1.630559235E0
2.904240542E0,-4.242328033E0,-2.111509094E0,8.818162537E-1
2.914222542E0,-4.474345551E0,-1.694626007E0,-1.993853760E-1
2.924204542E0,-4.484823761E0,-1.556014252E0,-1.172661438E0
2.934186542E0,-4.250411224E0,-1.858834534E0,-1.735191650E0
2.944167542E0,-3.468287659E0,-2.930156708E0,-2.241887970E0
2.954149542E0,-2.507884827E0,-4.566404114E0,-2.569406891E0
2.964131542E0,-2.349214783E0,-6.824009399E0,-3.423231354E0
2.974113542E0,-2.115251312E0,-9.142837372E0,-5.966592407E0
2.984095542E0,-1.538800049E0,-1.155058044E1,-1.103116058E1
2.994077542E0,-1.304537201E0,-1.568872513E1,-1.592343704E1
3.004059542E0,1.999841309E-1,-2.056004517E1,-1.560340256E1
3.014041542E0,2.576591949E0,-2.481554581E1,-1.510568756E1
3.024023542E0,3.025059357E0,-2.514755539E1,-1.338127350E1
3.034005542E0,1.860181732E0,-1.932705917E1,-1.084105591E1
3.043987542E0,7.550299072E-1,-1.340477463E1,-1.032103729E1
3.053969542E0,4.878355408E-1,-9.842033386E0,-9.979148254E0
3.063951542E0,6.339317322E-1,-7.553592224E0,-7.960895233E0
3.073933542E0,8.300239563E-1,-5.757177887E0,-6.482419739E0
3.083915542E0,-1.752854919E-1,-4.370910645E0,-6.345155182E0
3.093897542E0,-2.688559113E0,-4.624633026E0,-4.467010803E0
3.103879542E0,-5.794749756E0,-7.988288269E0,-4.637356567E0
3.113861542E0,-9.463171234E0,-1.206521027E1,-6.168672180E0
3.123843542E0,-1.225202179E1,-1.547706528E1,-3.462000732E0
3.133825542E0,-1.199500626E1,-1.862980911E1,-3.273692322E-1
3.143807542E0,-9.805958405E0,-1.670256683E1,4.081113281E0
3.153789542E0,-5.718408508E0,-9.894274750E0,6.992858276E0
3.163771542E0,-3.139720917E0,-5.019511871E0,8.663384399E0
3.173753542E0,-2.511477356E0,-3.891607361E0,9.750274200E0
3.183735542E0,-1.877545624E0,-4.451892242E0,9.284891968E0
3.193717542E0,-2.058369598E0,-5.506449280E0,7.803572388E0
3.203699542E0,-2.860401764E0,-6.261479187E0,5.690267029E0
3.213681542E0,-2.192490692E0,-7.817044373E0,4.213138733E0
3.223663542E0,-2.282603302E0,-9.690847778E0,4.105063477E0
3.233645542E0,-3.354973297E0,-1.124252106E1,3.959416351E0
3.243627542E0,-3.668122101E0,-1.251397705E1,3.570674744E0
3.253608542E0,-3.234174500E0,-1.304851547E1,2.375110931E0
3.263590542E0,-1.904190216E0,-1.337872879E1,1.234931946E0
3.273572542E0,-5.598358154E-2,-1.371792343E1,1.386117554E-1
3.283554542E0,2.358495483E0,-1.346105759E1,-1.480421448E0
3.293536542E0,3.865711212E0,-1.179921341E1,-3.618275757E0
3.303518542E0,3.371888123E0,-9.814640350E0,-4.303401031E0
3.313500542E0,1.501527557E0,-8.885971527E0,-3.470682678E0
3.323482542E0,-8.843609619E-1,-8.394393768E0,-2.414479065E0
3.333464542E0,-2.404300232E0,-7.677534485E0,-1.533710632E0
3.343446542E0,-3.577560425E0,-7.226821747E0,-7.611671448E-1
