"Time (s)","X (m/s^2)","Y (m/s^2)","Z (m/s^2)"
6.969999988E-3,1.507181230E0,-2.513641995E-1,-6.196624795E-1
1.695200009E-2,1.284063760E0,-3.444214672E-1,-3.852648532E-1
2.693399996E-2,1.034081842E0,-5.254711443E-1,-3.576171711E-1
3.691600007E-2,6.588242063E-1,-7.600585127E-1,-6.140460826E-1
4.689799994E-2,2.790177289E-1,-1.064983208E0,-1.114035646E0
5.688000005E-2,-4.570973128E-2,-1.549696920E0,-1.651605264E0
6.686199992E-2,-6.614311874E-2,-2.135579742E0,-2.081797637E0
7.684400002E-2,-4.496801198E-2,-2.723990316E0,-2.426648583E0
8.682600013E-2,1.700636360E-1,-2.923568650E0,-2.719310204E0
9.680800000E-2,1.067880795E0,-2.911967189E0,-3.147333407E0
1.067900001E-1,1.913747198E0,-2.868749834E0,-3.330754130E0
1.167720000E-1,2.720079990E0,-2.806899156E0,-3.156871385E0
1.267540001E-1,3.530357899E0,-2.749488854E0,-2.709790353E0
1.367360000E-1,4.098266965E0,-2.728847598E0,-2.195171641E0
1.467180001E-1,4.379913895E0,-2.766901277E0,-1.761371974E0
1.566999999E-1,4.401504446E0,-2.876224914E0,-1.714517065E0
1.666820000E-1,4.182738474E0,-3.149341925E0,-2.164694345E0
1.766639999E-1,3.814812369E0,-3.646206737E0,-2.809259969E0
1.866460000E-1,3.355224435E0,-4.330719223E0,-3.129531559E0
1.966280001E-1,2.929215306E0,-4.892521457E0,-3.121937195E0
2.066100000E-1,2.683824330E0,-5.008754749E0,-3.229190918E0
2.165920001E-1,2.585153443E0,-4.569957467E0,-3.301076002E0
2.265740000E-1,2.226701581E0,-3.655000364E0,-2.956849832E0
2.365560001E-1,1.534751144E0,-2.479760304E0,-2.175597063E0
2.465379999E-1,9.772433978E-1,-1.333593770E0,-1.197488862E0
2.565200001E-1,4.773684400E-1,-8.496589065E-2,-2.960515451E-1
2.665019999E-1,-1.369227871E-1,1.362711149E0,-6.781900384E-2
2.764840000E-1,-9.213212121E-1,2.322470203E0,-1.403572077E0
2.864659999E-1,-2.197235123E0,1.455395949E0,-3.899830885E0
2.964480000E-1,-3.042149599E0,-2.408392113E-1,-3.583965465E0
3.064300001E-1,-3.382826801E0,-1.056479602E0,-4.982049930E-1
3.164120000E-1,-4.110440868E0,-1.724719872E0,2.410202411E0
3.263940001E-1,-4.274063796E0,-2.977103418E0,3.995423505E0
3.363760000E-1,-3.676799369E0,-4.139435749E0,3.635512179E0
3.463580001E-1,-2.737065275E0,-3.703870808E0,2.909147662E0
3.563399999E-1,-1.347579286E0,-1.732518888E0,2.812570370E0
3.663220000E-1,-4.812183930E-1,-5.523928946E-1,1.969194736E0
3.763039999E-1,8.288632840E-2,-3.116256040E-1,8.719812369E-1
3.862860000E-1,4.071299314E-1,-4.535749501E-1,-1.954373360E-2
3.962680001E-1,1.904379666E-1,-6.855024201E-1,-4.988082795E-1
4.062500000E-1,-4.335094987E-1,-5.148338896E-1,-2.466954902E-1
4.162320001E-1,-3.529917312E-1,-2.165756053E-1,6.688992512E-1
4.262140000E-1,1.107545967E-1,-4.503344232E-1,1.174828124E0
4.361960001E-1,5.267372127E-1,-2.997341216E-1,2.020541621E0
4.461780000E-1,1.939121629E0,-1.499910218E-1,2.466957533E0
4.561600001E-1,2.299487722E0,8.605054915E-2,1.968450531E0
4.661419999E-1,8.957947536E-1,7.126668298E-1,1.392662342E0
4.761240000E-1,8.499600381E-2,1.244352980E0,1.397493896E0
4.861059999E-1,-1.782998778E-1,1.488788813E0,2.294410292E0
4.960870000E-1,-1.733173192E-1,1.838304375E0,2.643232959E0
5.060690001E-1,-2.338650180E-1,1.999901535E0,2.718872540E0
5.160510000E-1,-6.132856523E-1,2.028918343E0,3.007094664E0
5.260330001E-1,-7.944167519E-1,2.340671416E0,3.505339125E0
5.360150000E-1,-1.060051154E0,2.665142183E0,3.719484628E0
5.459970001E-1,-1.377882335E0,2.696862159E0,3.809853053E0
5.559789999E-1,-1.619893913E0,2.595353910E0,3.792147977E0
5.659610000E-1,-1.431339481E0,2.915012419E0,3.741100615E0
5.759429999E-1,-1.687741788E0,3.159922462E0,3.946530257E0
5.859250000E-1,-1.449059907E0,3.541081401E0,3.689107173E0
5.959070001E-1,-1.179653246E0,3.874918238E0,3.220552826E0
6.058890000E-1,-7.902081453E-1,4.066941969E0,2.802741786E0
6.158710001E-1,-5.328077920E-1,4.420597360E0,2.221501653E0
6.258530000E-1,1.121792708E-1,4.384091438E0,1.718919434E0
6.358350001E-1,2.746437192E-1,4.158437446E0,8.575807142E-1
6.458170000E-1,3.325715730E-1,3.972245727E0,1.234312141E-1
6.557990001E-1,3.226624428E-1,3.633908288E0,-1.576880041E-1
6.657809999E-1,2.970517114E-1,3.156983067E0,-2.915503585E-1
6.757630000E-1,-1.650614892E-1,2.320406136E0,-6.568759140E-1
6.857449999E-1,-1.794779456E-1,1.182478913E0,-2.870176847E0
6.957270000E-1,-2.037691797E-1,1.605738974E-1,-4.354033534E0
7.057090001E-1,9.647978917E-2,-7.522255826E-1,-5.249072388E0
7.156910000E-1,1.446011607E0,-2.234095970E0,-6.326442922E0
7.256730001E-1,3.542473038E0,-4.036522999E0,-6.070326691E0
7.356550000E-1,4.915437280E0,-5.749257833E0,-6.004344955E0
7.456370001E-1,5.030005285E0,-7.264632182E0,-6.086267370E0
7.556189999E-1,3.533604566E0,-7.522784999E0,-6.157536743E0
7.656010001E-1,1.728740564E0,-5.902559549E0,-6.659785670E0
7.755829999E-1,1.479381082E0,-3.958216503E0,-7.575742646E0
7.855650000E-1,2.373571652E0,-2.152599233E0,-6.710106808E0
7.955470001E-1,3.462815834E0,2.531844378E-4,-4.605431647E0
8.055290000E-1,3.588134530E0,2.460509516E0,-3.777224421E0
8.155110001E-1,2.652047051E0,4.293449655E0,-3.057012344E0
8.254930000E-1,6.042395711E-1,5.217088119E0,-2.333687794E0
8.354750001E-1,-1.559815673E0,3.853018661E0,-6.513315842E-1
8.454570000E-1,-3.396326560E0,1.120288512E0,1.082851129E0
8.554390001E-1,-5.546108605E0,-1.862016004E0,2.059513606E0
8.654209999E-1,-8.413217710E0,-5.678200715E0,5.049746654E0
8.754030000E-1,-1.022306602E1,-8.782592170E0,7.682030994E0
8.853849999E-1,-9.386480908E0,-7.479578168E0,8.683523380E0
8.953670000E-1,-6.963244468E0,-2.473411397E0,8.802896626E0
9.053490001E-1,-3.878050884E0,1.421678565E0,8.059069984E0
9.153310000E-1,-2.494532710E0,2.565317348E0,7.162300061E0
9.253130001E-1,-1.860264909E0,3.662173728E0,6.820228590E0
9.352950000E-1,-1.785270567E0,4.320528696E0,7.035369873E0
9.452770001E-1,-1.855884321E0,3.847278450E0,6.181299242E0
9.552590000E-1,-1.988556036E0,2.732302718E0,5.014390295E0
9.652410001E-1,-2.340146190E0,1.505015422E0,4.789545265E0
9.752229999E-1,-2.616701510E0,4.396346033E-1,5.101811432E0
9.852050000E-1,-2.448513661E0,-3.576507926E-1,5.279604210E0
9.951869999E-1,-1.888324966E0,-9.962170279E-1,4.730047799E0
1.005169000E0,-5.447507299E-1,-1.781382315E0,3.518194814E0
1.015151000E0,1.479145001E0,-3.014222712E0,2.400678467E0
1.025133000E0,3.825458980E0,-3.745871943E0,1.440335130E0
1.035115000E0,6.073243867E0,-3.068043408E0,6.306784145E-1
1.045097000E0,7.607663181E0,-1.039981098E0,-7.349926686E-1
1.055079000E0,7.157184332E0,6.813193220E-1,-1.986025507E0
1.065061000E0,5.596913892E0,1.738989417E0,-1.513120101E0
1.075043000E0,2.638363690E0,1.977611949E0,-3.996980473E-1
1.085025000E0,4.756359100E-1,2.245816129E0,1.965483435E-1
1.095007000E0,-8.893082911E-1,2.178069119E0,1.536414385E-1
1.104989000E0,-1.516633108E0,1.599878894E0,-2.029871877E-1
1.114971000E0,-1.626328774E0,1.255608870E0,-3.955033278E-1
1.124953000E0,-1.441788017E0,8.302812338E-1,-4.977091491E-1
1.134935000E0,-8.479993205E-1,5.158396107E-1,-5.395401299E-1
1.144917000E0,-4.685387059E-1,5.276468933E-1,-2.774182230E-1
1.154899000E0,-3.984462315E-1,7.029727310E-1,2.156043828E-1
1.164881000E0,-1.641626260E-1,9.455327779E-1,3.804935253E-1
1.174863000E0,2.737667830E-1,1.207738885E0,2.458905844E-1
1.184845000E0,6.603414126E-1,1.186569040E0,3.647675849E-2
1.194827000E0,9.015988460E-1,1.035795076E0,-3.507568523E-1
1.204809000E0,1.037219020E0,8.823290545E-1,-5.804968788E-1
1.214791000E0,1.224577404E0,5.555270022E-1,-1.254327160E0
1.224773000E0,1.549567989E0,3.584846056E-1,-1.652794442E0
1.234755000E0,1.887136958E0,5.050883353E-2,-1.630164109E0
1.244737000E0,1.996024539E0,-4.015785849E-1,-1.722886770E0
1.254719000E0,2.007646318E0,-7.101396632E-1,-2.060523713E0
1.264701000E0,1.844984526E0,-1.141400469E0,-2.533717241E0
1.274683000E0,1.651351056E0,-1.909576671E0,-2.886283295E0
1.284665000E0,1.680505858E0,-2.563294212E0,-3.182666377E0
1.294647000E0,2.043964983E0,-2.837786488E0,-3.714207516E0
1.304629000E0,2.644439824E0,-2.595475532E0,-4.040853447E0
1.314611000E0,3.189563460E0,-2.335824659E0,-3.688184482E0
1.324593000E0,3.471260091E0,-2.383634418E0,-2.612642373E0
1.334575000E0,3.339933089E0,-2.674902356E0,-1.645139267E0
1.344557000E0,3.334901560E0,-3.077544549E0,-1.400218845E0
1.354538000E0,3.794916341E0,-3.514235079E0,-1.396564920E0
1.364520000E0,4.415352992E0,-3.850730646E0,-1.281872224E0
1.374502000E0,5.080472603E0,-3.914065347E0,-1.165008602E0
1.384484000E0,5.686418391E0,-3.638180848E0,-1.327352598E0
1.394466000E0,5.935039662E0,-2.997617789E0,-2.159015529E0
1.404448000E0,5.516251552E0,-2.703932612E0,-3.626479400E0
1.414430000E0,4.396512386E0,-3.114308333E0,-5.506172706E0
1.424412000E0,3.573807974E0,-3.824774855E0,-7.203113626E0
1.434394000E0,3.387433530E0,-4.329900028E0,-6.773898177E0
1.444376000E0,3.217903160E0,-4.350779850E0,-4.766268961E0
1.454358000E0,3.381670514E0,-4.126153799E0,-3.562778079E0
1.464340000E0,3.651435317E0,-3.172506255E0,-2.680784655E0
1.474322000E0,2.986977318E0,-1.660244379E0,-1.641177778E0
1.484304000E0,8.333866900E-1,-4.138074517E-2,-6.336364478E-1
1.494286042E0,-1.528598850E0,1.516912751E0,8.002148509E-1
1.504268042E0,-3.013187755E0,1.142421393E0,1.701350305E0
1.514250042E0,-3.771967481E0,-1.136190015E0,2.018436624E0
1.524232042E0,-4.346960742E0,-3.366543767E0,3.359914194E0
1.534214042E0,-6.101145025E0,-5.505319598E0,4.319623547E0
1.544196042E0,-8.473385559E0,-7.793266670E0,4.173734347E0
1.554178042E0,-1.044266523E1,-8.910953171E0,2.796366566E0
1.564160042E0,-9.667562996E0,-7.826982885E0,-7.621949391E-1
1.574142042E0,-6.690235630E0,-5.798507761E0,-4.771560692E0
1.584124042E0,-5.204999000E0,-4.154706337E0,-3.990720005E0
1.594106042E0,-4.914219305E0,-1.855947763E0,-4.133154085E-1
1.604088042E0,-4.095357099E0,-1.082769853E-1,2.213395658E0
1.614070042E0,-3.152101811E0,5.477981526E-1,3.426261381E0
1.624052042E0,-1.674906565E0,1.543750302E0,4.264652703E0
1.634034042E0,6.794701400E-1,2.040486474E0,2.845548667E0
1.644016042E0,1.978487131E0,2.012071345E0,2.677923904E0
1.653998042E0,3.382464566E0,1.502551990E0,3.887041562E0
1.663980042E0,3.559007210E0,9.177193272E-1,4.216990001E0
1.673962042E0,1.110400578E0,1.075714018E0,3.740579335E0
1.683944042E0,-1.099452763E0,1.777783939E0,3.933717839E0
1.693926042E0,-2.284305280E0,2.441244110E0,4.530535539E0
1.703908042E0,-2.062944460E0,3.241704544E0,4.776595729E0
1.713890042E0,-1.359822186E0,3.529303939E0,4.611998947E0
1.723872042E0,-8.701065465E-1,3.521286821E0,4.673179242E0
1.733854042E0,-7.134668020E-1,3.799403787E0,5.099779524E0
1.743836042E0,-6.787659891E-1,4.332904328E0,5.636301321E0
1.753818042E0,-1.186776617E0,5.019603673E0,6.455013839E0
1.763800042E0,-2.030267295E0,5.980216420E0,6.972870739E0
1.773782042E0,-2.522347915E0,7.193400816E0,6.949255005E0
1.783764042E0,-2.783830428E0,8.058854222E0,6.142850876E0
1.793746042E0,-2.818082833E0,8.248864757E0,4.810062853E0
1.803728042E0,-2.809223424E0,8.138657021E0,3.399091709E0
1.813710042E0,-2.480339763E0,7.712573925E0,2.388261904E0
1.823692042E0,-1.628698651E0,6.462419922E0,1.263730068E0
1.833674042E0,-8.405980611E-1,4.772157692E0,2.342096382E-1
1.843656042E0,-1.093829130E0,2.786919220E0,-7.501697016E-1
1.853638042E0,-3.687008607E-1,9.811709726E-1,-2.736784024E0
1.863619042E0,3.559451598E-1,-8.759427255E-1,-6.132060424E0
1.873601042E0,-1.889820099E-3,-4.297921021E0,-1.108238570E1
1.883583042E0,4.834682554E-1,-9.366427882E0,-1.318121452E1
1.893565042E0,2.971361744E0,-1.493221237E1,-1.380639999E1
1.903547042E0,4.902152406E0,-1.746272358E1,-1.096874273E1
1.913529042E0,4.320151258E0,-1.217570861E1,-8.453851765E0
1.923511042E0,2.277565487E0,-5.691111367E0,-9.025654492E0
1.933493042E0,1.564420355E0,-1.714173249E0,-9.062007802E0
1.943475042E0,1.454148007E0,1.072775792E0,-5.969064610E0
1.953457042E0,1.466861608E0,3.406741621E0,-2.627760641E0
1.963439042E0,9.648395531E-1,6.025903054E0,-1.279447676E0
1.973421042E0,-4.816502099E-1,8.074036517E0,-1.788578776E0
1.983403042E0,-2.492186807E0,7.557422735E0,5.259614334E-1
1.993385042E0,-4.007658219E0,4.351746395E0,3.966539429E0
2.003367042E0,-6.883598374E0,-9.698835075E-2,4.370746630E0
2.013349042E0,-1.087658242E1,-5.164561996E0,7.570212350E0
2.023331042E0,-1.344297800E1,-9.926927941E0,9.697782576E0
2.033313042E0,-1.270931732E1,-9.794198484E0,1.056353536E1
2.043295042E0,-7.765974791E0,-4.625606003E0,7.910795705E0
2.053277042E0,-7.044783890E-1,-9.595579094E-1,6.196035980E0
2.063259042E0,1.946977070E0,-4.768632406E-1,9.820388163E0
2.073241042E0,2.644662895E0,2.045993382E-1,1.154443151E1
2.083223042E0,1.512854637E0,8.978335315E-1,1.076115371E1
2.093205042E0,-9.656935389E-1,1.238794032E0,9.699989315E0
2.103187042E0,-1.364493088E0,1.274379017E0,8.426527727E0
2.113169042E0,-6.786633705E-1,1.301890166E0,7.133962115E0
2.123151042E0,-8.904046440E-1,1.022730058E0,5.364218098E0
2.133133042E0,-6.197542807E-1,-1.740043670E-1,3.350071284E0
2.143115042E0,8.831099501E-1,-2.414284937E0,9.090047832E-1
2.153097042E0,3.578549774E0,-4.315443372E0,-1.332275223E0
2.163079042E0,5.255155832E0,-4.409857194E0,-2.471506959E0
2.173061042E0,5.349084919E0,-2.995626812E0,-2.354472453E0
2.183043042E0,4.425597314E0,-1.431552173E0,-1.616927182E0
2.193025042E0,3.610835175E0,1.436532247E-1,-6.296386334E-1
2.203007042E0,2.268215351E0,2.012208754E0,1.090829728E0
2.212989042E0,9.279502004E-2,3.052813166E0,2.042503617E0
2.222971042E0,-1.719584409E0,3.139301087E0,2.310527265E0
2.232953042E0,-2.632614707E0,3.330073514E0,2.307719432E0
2.242935042E0,-2.551909098E0,2.991911491E0,1.730200467E0
2.252917042E0,-2.429216241E0,2.517274870E0,1.054463482E0
2.262899042E0,-2.041723014E0,1.843338243E0,2.766001976E-1
2.272880042E0,-1.459561944E0,1.540952409E0,-1.578607893E-1
2.282862042E0,-8.608327894E-1,1.461834319E0,-1.809853578E-1
2.292844042E0,-4.682283649E-1,1.376062097E0,-2.433529294E-1
2.302826042E0,3.044525322E-1,1.149501202E0,-2.862989559E-1
2.312808042E0,1.215360292E0,6.964630258E-1,-4.127929598E-1
2.322790042E0,2.124005910E0,1.542553961E-1,-7.434425531E-1
2.332772042E0,2.936415275E0,-7.068640530E-2,-1.236860358E0
2.342754042E0,3.558958678E0,-1.578064102E-1,-1.784412927E0
2.352736042E0,3.912492446E0,-1.426644605E-1,-2.489005921E0
2.362718042E0,4.191262253E0,-7.689263999E-2,-3.192375094E0
2.372700042E0,4.316682982E0,-8.779301941E-2,-3.443382028E0
2.382682042E0,4.101178002E0,-1.722542953E-1,-3.150229533E0
2.392664042E0,3.701421117E0,-4.706915045E-1,-2.577073175E0
2.402646042E0,3.322856003E0,-1.028468515E0,-1.929816954E0
2.412628042E0,2.998965864E0,-1.649762660E0,-1.510149862E0
2.422610042E0,2.673080363E0,-1.998384767E0,-1.578396224E0
2.432592042E0,2.313052385E0,-2.207848404E0,-1.822735432E0
2.442574042E0,1.711315715E0,-2.539668537E0,-1.802900215E0
2.452556042E0,1.231440866E0,-2.863320694E0,-1.610003787E0
2.462538042E0,1.630428549E0,-3.218348426E0,-1.551476666E0
2.472520042E0,2.500250994E0,-3.594709724E0,-1.474688984E0
2.482502042E0,3.241576782E0,-3.906531209E0,-1.134481312E0
2.492484542E0,4.122009292E0,-4.087582056E0,-7.105437058E-1
2.502466542E0,5.021106407E0,-4.159946612E0,-4.474312806E-1
2.512448542E0,5.439209808E0,-3.868813160E0,-7.790216178E-1
2.522430542E0,5.284698304E0,-3.484207873E0,-2.122745835E0
2.532412542E0,4.496674605E0,-3.627460563E0,-4.120796580E0
2.542394542E0,3.124517571E0,-4.314439990E0,-6.456914769E0
2.552376542E0,2.378962200E0,-4.958910159E0,-7.662949775E0
2.562358542E0,1.788202215E0,-5.447498236E0,-6.467440926E0
2.572340542E0,1.702544307E0,-4.797159217E0,-5.653012664E0
2.582322542E0,2.680675604E0,-3.492922563E0,-4.174016182E0
2.592304542E0,3.485770541E0,-1.928333369E0,-1.891318156E0
2.602286542E0,3.195490198E0,-3.655427796E-1,-6.968968892E-1
2.612268542E0,2.213064705E0,6.194914484E-1,-1.884048897E-1
2.622249542E0,8.805978401E-1,1.014279077E0,1.203473926E0
2.632231542E0,-7.992086913E-1,5.132001776E-1,1.176638714E0
2.642213542E0,-1.394773626E0,-1.456943707E0,1.815395569E0
2.652195542E0,-1.727133749E0,-3.715973375E0,3.583797065E0
2.662177542E0,-3.116716801E0,-5.572835643E0,4.368891016E0
2.672159542E0,-5.042886701E0,-6.980006681E0,4.768711928E0
2.682141542E0,-6.873304351E0,-7.986748697E0,4.638342408E0
2.692123542E0,-7.436509917E0,-8.213790234E0,3.152198875E0
2.702105542E0,-6.202911136E0,-6.226953133E0,7.006907089E-1
2.712087542E0,-4.865035743E0,-3.804254637E0,-7.491476083E-1
2.722069542E0,-4.481424482E0,-2.327073131E0,-6.087653160E-1
2.732051542E0,-4.424639832E0,-8.839042944E-1,3.643978947E-1
2.742033542E0,-4.937074901E0,3.512147623E-1,9.526497164E-1
2.752015542E0,-3.268726282E0,1.558281802E0,2.451009837E0
2.761997542E0,-9.582518607E-1,2.407298099E0,4.785457769E0
2.771979542E0,1.742128933E0,1.879582209E0,3.781722976E0
2.781961542E0,3.724815827E0,1.582241938E0,2.248087188E0
2.791943542E0,1.555628628E0,1.697737311E0,3.310785888E0
2.801925542E0,-3.908013625E-1,2.755369399E0,4.084865147E0
2.811907542E0,-9.472682315E-1,3.770951235E0,4.164659468E0
2.821889542E0,-1.173203913E0,4.205157868E0,4.336201865E0
2.831871542E0,-1.277128085E0,4.415081096E0,4.626654993E0
2.841853542E0,-1.079169649E0,4.395287687E0,5.096270610E0
2.851835542E0,-9.722825470E-1,4.337192091E0,5.378192943E0
2.861817542E0,-1.138910213E0,4.467796669E0,5.530593603E0
2.871799542E0,-1.494544082E0,4.684648263E0,5.962452579E0
2.881781542E0,-1.894009921E0,5.104461390E0,6.196306121E0
2.891763542E0,-2.562104596E0,5.631087359E0,6.298295011E0
2.901745542E0,-3.183890199E0,6.124439163E0,6.090602496E0
2.911727542E0,-3.740525249E0,6.648740864E0,5.268423749E0
2.921709542E0,-3.881469458E0,7.112327417E0,4.081055101E0
2.931691542E0,-3.795467149E0,7.309116629E0,2.971050088E0
2.941673542E0,-3.461493486E0,7.072387426E0,2.245635158E0
2.951654542E0,-2.582938225E0,6.072303050E0,1.553895221E0
2.961636542E0,-1.531505355E0,4.508072875E0,1.027348773E0
2.971618542E0,-1.289624462E0,2.315791513E0,-2.067049205E-2
2.981600542E0,-9.828516816E-1,4.593923450E-2,-2.723113526E0
2.991582542E0,-3.338693625E-1,-2.338048355E0,-7.882590491E0
3.001564542E0,-2.521246299E-2,-6.471563213E0,-1.281806267E1
3.011546542E0,1.532577442E0,-1.135207332E1,-1.249316915E1
3.021528542E0,3.925793692E0,-1.562585587E1,-1.194889277E1
3.031510542E0,4.357550341E0,-1.598034682E1,-1.015283278E1
3.041492542E0,3.163398047E0,-1.018949131E1,-7.518014256E0
3.051474542E0,2.030608626E0,-4.303210997E0,-6.890213914E0
3.061456542E0,1.737126202E0,-7.737170237E-1,-6.451967440E0
3.071438542E0,1.852580644E0,1.487762042E0,-4.354663863E0
3.081420542E0,2.023209414E0,3.260271208E0,-2.808454808E0
3.091402542E0,1.001580679E0,4.629725366E0,-2.624988769E0
3.101384542E0,-1.508050565E0,4.368565911E0,-7.300491402E-1
3.111366542E0,-4.585457266E0,1.001179560E0,-9.006238228E-1
3.121348542E0,-8.220476525E0,-3.086001962E0,-2.418254904E0
3.131330542E0,-1.097687620E1,-6.519582303E0,3.292534974E-1
3.141312542E0,-1.069292956E1,-9.687741153E0,3.491023387E0
3.151294542E0,-8.501409509E0,-7.757201044E0,7.890927451E0
3.161276542E0,-4.441352344E0,-9.309638554E-1,1.076966725E1
3.171258542E0,-1.900840346E0,3.973248525E0,1.238246382E1
3.181240542E0,-1.294357783E0,5.139645256E0,1.338224297E1
3.191222542E0,-6.649994507E-1,4.622183043E0,1.281008707E1
3.201204542E0,-8.412128958E-1,3.609183921E0,1.121822705E1
3.211186542E0,-1.624610716E0,2.894165926E0,8.989218153E0
3.221168542E0,-9.177653740E-1,1.381205893E0,7.375947965E0
3.231149542E0,-9.452357394E-1,-4.475780457E-1,7.106648601E0
3.241132542E0,-1.940309783E0,-1.953511480E0,6.778837320E0
3.251113542E0,-2.162970293E0,-3.182997329E0,6.198115250E0
3.261095542E0,-1.621662111E0,-3.680314715E0,4.798481565E0
3.271077542E0,-1.791699435E-1,-3.974788681E0,3.431821791E0
3.281059542E0,1.760469456E0,-4.277265147E0,2.090680435E0
3.291041542E0,4.224570624E0,-3.986535153E0,2.479580502E-1
3.301023542E0,5.740387607E0,-2.296714972E0,-2.061288528E0
3.311005542E0,5.227814251E0,-2.894810289E-1,-2.867095656E0
3.320987542E0,3.330378154E0,6.578906983E-1,-2.126766819E0
3.330969542E0,9.198041520E-1,1.166411349E0,-1.160646433E0
3.340951542E0,-6.166627117E-1,1.898546484E0,-3.764998770E-1
3.350933542E0,-1.793603581E0,2.361829566E0,2.930459301E-1
3.360915542E0,-2.263958724E0,2.483471532E0,8.604364944E-1
3.370897542E0,-2.142798715E0,2.593337206E0,1.101476338E0
3.380879542E0,-1.155416830E0,2.539359804E0,8.715182836E-1
3.390861542E0,-4.329560597E-1,2.068418623E0,7.310925758E-1
3.400843542E0,2.400124151E-1,1.545646554E0,7.115956199E-1
